#Name              :  IC 342   
#Alpha(1950 (H M S):  03 41 59 
#Delta(1950)(d ' "):  +67 56 26 
#Type              :  Sc  
#Activity          :          
#Interaction       :    
#Position angle (d):  40 
#Inclination (d)   :    25    
#Distance (Mpc)    :   3.9      
#Scale radius (kpc):          
#
#    R(kpc)    V(km/s)  
     0.00000   123.00000
     0.05000   126.18448
     0.10000   128.82301
     0.15000   130.70949
     0.20000   131.73502
     0.25000   132.25031
     0.30000   132.72542
     0.35000   133.30064
     0.40000   134.01971
     0.45000   135.14468
     0.50000   136.98727
     0.55000   139.34894
     0.60000   142.55586
     0.65000   147.11719
     0.70000   152.24139
     0.75000   156.96814
     0.80000   160.73763
     0.85000   163.53262
     0.90000   165.70277
     0.95000   167.32008
     1.00000   168.51137
     1.05000   169.43416
     1.10000   170.22325
     1.15000   170.96326
     1.20000   171.72086
     1.25000   172.47047
     1.30000   173.09920
     1.35000   173.56631
     1.40000   173.80286
     1.45000   173.91261
     1.50000   174.03168
     1.55000   174.17181
     1.60000   174.34749
     1.65000   174.57245
     1.70000   174.85440
     1.75000   175.19063
     1.80000   175.56766
     1.85000   175.96593
     1.90000   176.36755
     1.95000   176.76248
     2.00000   177.14856
     2.05000   177.52559
     2.10000   177.88921
     2.15000   178.23186
     2.20000   178.55087
     2.25000   178.85561
     2.30000   179.16595
     2.35000   179.50294
     2.40000   179.87862
     2.45000   180.29179
     2.50000   180.73064
     2.55000   181.17926
     2.60000   181.62482
     2.65000   182.06142
     2.70000   182.48891
     2.75000   182.90796
     2.80000   183.31712
     2.85000   183.71490
     2.90000   184.10497
     2.95000   184.49843
     3.00000   184.90971
     3.05000   185.34726
     3.10000   185.80479
     3.15000   186.25911
     3.20000   186.67751
     3.25000   187.03209
     3.30000   187.31206
     3.35000   187.52611
     3.40000   187.69443
     3.45000   187.83762
     3.50000   187.96996
     3.55000   188.09869
     3.60000   188.22661
     3.65000   188.35461
     3.70000   188.48322
     3.75000   188.61298
     3.80000   188.74455
     3.85000   188.87862
     3.90000   189.01566
     3.95000   189.15665
     4.00000   189.30380
     4.05000   189.46147
     4.10000   189.63496
     4.15000   189.82742
     4.20000   190.03604
     4.25000   190.25153
     4.30000   190.46230
     4.35000   190.66080
     4.40000   190.84711
     4.45000   191.02769
     4.50000   191.21091
     4.55000   191.40359
     4.60000   191.61026
     4.65000   191.83424
     4.70000   192.07899
     4.75000   192.34814
     4.80000   192.64435
     4.85000   192.96693
     4.90000   193.30981
     4.95000   193.66148
     5.00000   194.00816
     5.05000   194.34023
     5.10000   194.65807
     5.15000   194.97354
     5.20000   195.30537
     5.25000   195.67068
     5.30000   196.07761
     5.35000   196.52173
     5.40000   196.98672
     5.45000   197.44765
     5.50000   197.87732
     5.55000   198.25478
     5.60000   198.57268
     5.65000   198.83946
     5.70000   199.07375
     5.75000   199.29440
     5.80000   199.51135
     5.85000   199.72147
     5.90000   199.91122
     5.95000   200.06441
     6.00000   200.16983
     6.05000   200.22420
     6.10000   200.22897
     6.15000   200.18588
     6.20000   200.09679
     6.25000   199.96774
     6.30000   199.81194
     6.35000   199.64590
     6.40000   199.48152
     6.45000   199.32130
     6.50000   199.16182
     6.55000   199.00075
     6.60000   198.83958
     6.65000   198.67950
     6.70000   198.51649
     6.75000   198.34264
     6.80000   198.15157
     6.85000   197.94180
     6.90000   197.71434
     6.95000   197.46867
     7.00000   197.20287
     7.05000   196.91672
     7.10000   196.61353
     7.15000   196.29881
     7.20000   195.97832
     7.25000   195.65752
     7.30000   195.34155
     7.35000   195.03372
     7.40000   194.73338
     7.45000   194.43584
     7.50000   194.13463
     7.55000   193.82526
     7.60000   193.50752
     7.65000   193.18497
     7.70000   192.86134
     7.75000   192.53700
     7.80000   192.20914
     7.85000   191.87733
     7.90000   191.54935
     7.95000   191.24036
     8.00000   190.96442
     8.05000   190.72447
     8.10000   190.50938
     8.15000   190.30070
     8.20000   190.08472
     8.25000   189.86154
     8.30000   189.64545
     8.35000   189.45651
     8.40000   189.30991
     8.45000   189.21021
     8.50000   189.15256
     8.55000   189.12744
     8.60000   189.12489
     8.65000   189.13644
     8.70000   189.15579
     8.75000   189.17879
     8.80000   189.20322
     8.85000   189.22807
     8.90000   189.25305
     8.95000   189.27803
     9.00000   189.30304
     9.05000   189.32812
     9.10000   189.35350
     9.15000   189.37981
     9.20000   189.40828
     9.25000   189.44093
     9.30000   189.48016
     9.35000   189.52794
     9.40000   189.58488
     9.45000   189.65002
     9.50000   189.72122
     9.55000   189.79610
     9.60000   189.87289
     9.65000   189.95067
     9.70000   190.02933
     9.75000   190.10931
     9.80000   190.19130
     9.85000   190.27608
     9.90000   190.36432
     9.95000   190.45689
    10.00000   190.55482
    10.05000   190.65866
    10.10000   190.76730
    10.15000   190.87694
    10.20000   190.98195
    10.25000   191.07808
    10.30000   191.16589
    10.35000   191.25189
    10.40000   191.34544
    10.45000   191.45312
    10.50000   191.57397
    10.55000   191.69939
    10.60000   191.81831
    10.65000   191.92451
    10.70000   192.02071
    10.75000   192.11739
    10.80000   192.22739
    10.85000   192.35860
    10.90000   192.50903
    10.95000   192.66730
    11.00000   192.81844
    11.05000   192.95160
    11.10000   193.06335
    11.15000   193.15565
    11.20000   193.23146
    11.25000   193.29196
    11.30000   193.33710
    11.35000   193.36745
    11.40000   193.38535
    11.45000   193.39436
    11.50000   193.39819
    11.55000   193.39954
    11.60000   193.39992
    11.65000   193.39998
    11.70000   193.39999
    11.75000   193.39999
    11.80000   193.39999
    11.85000   193.39999
    11.90000   193.39999
    11.95000   193.39999
    12.00000   193.39999
    12.05000   193.39999
    12.10000   193.39999
    12.15000   193.39999
    12.20000   193.39999
    12.25000   193.39999
    12.30000   193.39998
    12.35000   193.39986
    12.40000   193.39941
    12.45000   193.39809
    12.50000   193.39474
    12.55000   193.38782
    12.60000   193.37550
    12.65000   193.35657
    12.70000   193.33078
    12.75000   193.29913
    12.80000   193.26331
    12.85000   193.22501
    12.90000   193.18555
    12.95000   193.14565
    13.00000   193.10561
    13.05000   193.06554
    13.10000   193.02550
    13.15000   192.98557
    13.20000   192.94597
    13.25000   192.90710
    13.30000   192.86951
    13.35000   192.83385
    13.40000   192.80052
    13.45000   192.76961
    13.50000   192.74075
    13.55000   192.71335
    13.60000   192.68678
    13.65000   192.66064
    13.70000   192.63464
    13.75000   192.60870
    13.80000   192.58276
    13.85000   192.55682
    13.90000   192.53088
    13.95000   192.50494
    14.00000   192.47902
    14.05000   192.45308
    14.10000   192.42714
    14.15000   192.40121
    14.20000   192.37527
    14.25000   192.34933
    14.30000   192.32339
    14.35000   192.29745
    14.40000   192.27151
    14.45000   192.24551
    14.50000   192.21938
    14.55000   192.19283
    14.60000   192.16536
    14.65000   192.13626
    14.70000   192.10477
    14.75000   192.07031
    14.80000   192.03284
    14.85000   191.99281
    14.90000   191.95096
    14.95000   191.90802
    15.00000   191.86441
    15.05000   191.81989
    15.10000   191.77293
    15.15000   191.72021
    15.20000   191.65665
    15.25000   191.57751
    15.30000   191.48225
    15.35000   191.37733
    15.40000   191.27515
    15.45000   191.18854
    15.50000   191.12454
    15.55000   191.08240
    15.60000   191.05598
    15.65000   191.03838
    15.70000   191.02458
    15.75000   191.01204
    15.80000   190.99980
    15.85000   190.98763
    15.90000   190.97545
    15.95000   190.96329
    16.00000   190.95111
    16.05000   190.93893
    16.10000   190.92676
    16.15000   190.91460
    16.20000   190.90242
    16.25000   190.89024
    16.30000   190.87807
    16.35000   190.86591
    16.40000   190.85373
    16.45000   190.84155
    16.50000   190.82938
    16.55000   190.81721
    16.60000   190.80504
    16.65000   190.79288
    16.70000   190.78069
    16.75000   190.76852
    16.80000   190.75633
    16.85000   190.74414
    16.90000   190.73178
    16.95000   190.71867
    17.00000   190.70316
    17.05000   190.68163
    17.10000   190.64838
    17.15000   190.59750
    17.20000   190.52679
    17.25000   190.44104
    17.30000   190.35168
    17.35000   190.27177
    17.40000   190.20964
    17.45000   190.16618
    17.50000   190.13684
    17.55000   190.11559
    17.60000   190.09789
    17.65000   190.08141
    17.70000   190.06522
    17.75000   190.04907
    17.80000   190.03294
    17.85000   190.01682
    17.90000   190.00069
    17.95000   189.98454
    18.00000   189.96841
    18.05000   189.95229
    18.10000   189.93616
    18.15000   189.92001
    18.20000   189.90388
    18.25000   189.88776
    18.30000   189.87161
    18.35000   189.85536
    18.40000   189.83871
    18.45000   189.82082
    18.50000   189.79993
    18.55000   189.77350
    18.60000   189.73936
    18.65000   189.69743
    18.70000   189.65112
    18.75000   189.60651
    18.80000   189.56963
    18.85000   189.54359
    18.90000   189.52783
    18.95000   189.51933
    19.00000   189.51483
    19.05000   189.51202
    19.10000   189.50980
    19.15000   189.50768
    19.20000   189.50560
    19.25000   189.50352
    19.30000   189.50143
