#Name              :  NGC 3031 
#Alpha(1950 (H M S):  09 51 27 
#Delta(1950)(d ' "):  +69 18 08 
#Type              :  Sb  
#Activity          :          
#Interaction       :    
#Position angle (d): 152 
#Inclination (d)   :    59    
#Distance (Mpc)    :   3.25     
#Scale radius (kpc):   2.5    
#
#    R(kpc)    V(km/s)  
     0.00000     0.00000
     0.05000    30.39432
     0.10000    55.52418
     0.15000    78.86404
     0.20000   101.77239
     0.25000   123.70649
     0.30000   145.65477
     0.35000   164.45535
     0.40000   181.17612
     0.45000   202.33282
     0.50000   225.01360
     0.55000   243.27753
     0.60000   257.71030
     0.65000   269.20541
     0.70000   278.18304
     0.75000   285.95233
     0.80000   292.13428
     0.85000   296.20251
     0.90000   298.67188
     0.95000   299.96063
     1.00000   300.02927
     1.05000   298.78934
     1.10000   296.94861
     1.15000   294.58011
     1.20000   290.33035
     1.25000   283.82843
     1.30000   276.45215
     1.35000   268.38205
     1.40000   258.72025
     1.45000   249.52823
     1.50000   240.97278
     1.55000   233.53459
     1.60000   227.43639
     1.65000   222.63687
     1.70000   218.92039
     1.75000   216.02650
     1.80000   213.74690
     1.85000   211.95375
     1.90000   210.57417
     1.95000   209.55022
     2.00000   208.81564
     2.05000   208.29924
     2.10000   207.94325
     2.15000   207.71814
     2.20000   207.62079
     2.25000   207.65742
     2.30000   207.82312
     2.35000   208.09178
     2.40000   208.42281
     2.45000   208.77798
     2.50000   209.13599
     2.55000   209.49498
     2.60000   209.86362
     2.65000   210.24875
     2.70000   210.64833
     2.75000   211.05289
     2.80000   211.45258
     2.85000   211.84386
     2.90000   212.23120
     2.95000   212.62415
     3.00000   213.03244
     3.05000   213.46298
     3.10000   213.91991
     3.15000   214.40649
     3.20000   214.92677
     3.25000   215.48492
     3.30000   216.08208
     3.35000   216.71210
     3.40000   217.35992
     3.45000   218.00473
     3.50000   218.62711
     3.55000   219.21605
     3.60000   219.77151
     3.65000   220.30138
     3.70000   220.81616
     3.75000   221.32440
     3.80000   221.83044
     3.85000   222.33360
     3.90000   222.82806
     3.95000   223.30453
     4.00000   223.75403
     4.05000   224.17297
     4.10000   224.56667
     4.15000   224.94807
     4.20000   225.33252
     4.25000   225.73157
     4.30000   226.14955
     4.35000   226.58372
     4.40000   227.02647
     4.45000   227.46770
     4.50000   227.89723
     4.55000   228.30827
     4.60000   228.70084
     4.65000   229.08273
     4.70000   229.46593
     4.75000   229.85915
     4.80000   230.26138
     4.85000   230.66112
     4.90000   231.04208
     4.95000   231.39185
     5.00000   231.70744
     5.05000   231.99510
     5.10000   232.26607
     5.15000   232.53215
     5.20000   232.80325
     5.25000   233.08701
     5.30000   233.38898
     5.35000   233.71310
     5.40000   234.06192
     5.45000   234.43631
     5.50000   234.83524
     5.55000   235.25533
     5.60000   235.69090
     5.65000   236.13420
     5.70000   236.57603
     5.75000   237.00751
     5.80000   237.42264
     5.85000   237.82115
     5.90000   238.20866
     5.95000   238.59344
     6.00000   238.98087
     6.05000   239.36937
     6.10000   239.75041
     6.15000   240.11295
     6.20000   240.44913
     6.25000   240.75754
     6.30000   241.04266
     6.35000   241.31140
     6.40000   241.56946
     6.45000   241.81860
     6.50000   242.05441
     6.55000   242.26469
     6.60000   242.43008
     6.65000   242.52866
     6.70000   242.54436
     6.75000   242.47432
     6.80000   242.33041
     6.85000   242.13351
     6.90000   241.90498
     6.95000   241.66045
     7.00000   241.40855
     7.05000   241.15302
     7.10000   240.89519
     7.15000   240.63530
     7.20000   240.37190
     7.25000   240.10051
     7.30000   239.81284
     7.35000   239.49823
     7.40000   239.14714
     7.45000   238.75505
     7.50000   238.32448
     7.55000   237.86455
     7.60000   237.38918
     7.65000   236.91475
     7.70000   236.45650
     7.75000   236.02228
     7.80000   235.60666
     7.85000   235.18987
     7.90000   234.74539
     7.95000   234.25296
     8.00000   233.70872
     8.05000   233.12604
     8.10000   232.52724
     8.15000   231.93292
     8.20000   231.35535
     8.25000   230.79790
     8.30000   230.25810
     8.35000   229.73059
     8.40000   229.20860
     8.45000   228.68439
     8.50000   228.14912
     8.55000   227.59372
     8.60000   227.01076
     8.65000   226.39775
     8.70000   225.75955
     8.75000   225.10800
     8.80000   224.45779
     8.85000   223.82104
     8.90000   223.20370
     8.95000   222.60541
     9.00000   222.02193
     9.05000   221.44772
     9.10000   220.87750
     9.15000   220.30682
     9.20000   219.73227
     9.25000   219.15129
     9.30000   218.56184
     9.35000   217.96179
     9.40000   217.34863
     9.45000   216.72021
     9.50000   216.07684
     9.55000   215.42418
     9.60000   214.77484
     9.65000   214.14587
     9.70000   213.55194
     9.75000   212.99744
     9.80000   212.47298
     9.85000   211.95877
     9.90000   211.43233
     9.95000   210.87576
    10.00000   210.27992
    10.05000   209.64636
    10.10000   208.98817
    10.15000   208.32832
    10.20000   207.69324
    10.25000   207.10240
    10.30000   206.55991
    10.35000   206.05421
    10.40000   205.56670
    10.45000   205.08351
    10.50000   204.60260
    10.55000   204.13200
    10.60000   203.68147
    10.65000   203.25423
    10.70000   202.84415
    10.75000   202.44032
    10.80000   202.03496
    10.85000   201.62863
    10.90000   201.22919
    10.95000   200.84479
    11.00000   200.47612
    11.05000   200.11412
    11.10000   199.74504
    11.15000   199.36009
    11.20000   198.96243
    11.25000   198.56660
    11.30000   198.19060
    11.35000   197.84663
    11.40000   197.53580
    11.45000   197.24879
    11.50000   196.96996
    11.55000   196.68150
    11.60000   196.36748
    11.65000   196.01846
    11.70000   195.63657
    11.75000   195.23714
    11.80000   194.84476
    11.85000   194.48520
    11.90000   194.17780
    11.95000   193.93161
    12.00000   193.74483
    12.05000   193.60516
    12.10000   193.49168
    12.15000   193.37933
    12.20000   193.24628
    12.25000   193.08051
    12.30000   192.88235
    12.35000   192.66232
    12.40000   192.43671
    12.45000   192.22330
    12.50000   192.03690
    12.55000   191.88438
    12.60000   191.76071
    12.65000   191.64954
    12.70000   191.52953
    12.75000   191.38336
    12.80000   191.20393
    12.85000   190.99446
    12.90000   190.76387
    12.95000   190.52147
    13.00000   190.27414
    13.05000   190.02629
    13.10000   189.78143
    13.15000   189.54332
    13.20000   189.31566
    13.25000   189.10011
    13.30000   188.89403
    13.35000   188.69011
    13.40000   188.47971
    13.45000   188.25830
    13.50000   188.02979
    13.55000   187.80553
    13.60000   187.59834
    13.65000   187.41463
    13.70000   187.25027
    13.75000   187.09285
    13.80000   186.92796
    13.85000   186.74547
    13.90000   186.54176
    13.95000   186.31876
    14.00000   186.08116
    14.05000   185.83476
    14.10000   185.58621
    14.15000   185.34360
    14.20000   185.11696
    14.25000   184.91702
    14.30000   184.75127
    14.35000   184.61893
    14.40000   184.50874
    14.45000   184.40245
    14.50000   184.28375
    14.55000   184.14719
    14.60000   184.00047
    14.65000   183.85826
    14.70000   183.73109
    14.75000   183.61723
    14.80000   183.50308
    14.85000   183.37086
    14.90000   183.20828
    14.95000   183.01320
    15.00000   182.79205
    15.05000   182.55441
    15.10000   182.30849
    15.15000   182.05927
    15.20000   181.80904
    15.25000   181.55853
    15.30000   181.30795
    15.35000   181.05716
    15.40000   180.80582
    15.45000   180.55296
    15.50000   180.29660
    15.55000   180.03270
    15.60000   179.75459
    15.65000   179.45357
    15.70000   179.12190
    15.75000   178.75783
    15.80000   178.36935
    15.85000   177.97385
    15.90000   177.59187
    15.95000   177.23894
    16.00000   176.92017
    16.05000   176.63095
    16.10000   176.36168
    16.15000   176.10316
    16.20000   175.84984
    16.25000   175.60129
    16.30000   175.36250
    16.35000   175.14343
    16.40000   174.95630
    16.45000   174.81107
    16.50000   174.71088
    16.55000   174.65067
    16.60000   174.61971
    16.65000   174.60638
    16.70000   174.60167
    16.75000   174.60034
    16.80000   174.60007
    16.85000   174.60001
    16.90000   174.60001
    16.95000   174.60001
    17.00000   174.60001
    17.05000   174.60001
    17.10000   174.60001
    17.15000   174.60001
    17.20000   174.60001
    17.25000   174.60001
    17.30000   174.60001
    17.35000   174.60001
    17.40000   174.60001
    17.45000   174.60001
    17.50000   174.60005
    17.55000   174.60030
    17.60000   174.60141
    17.65000   174.60548
    17.70000   174.61713
    17.75000   174.64433
    17.80000   174.69708
    17.85000   174.78310
    17.90000   174.90207
    17.95000   175.04243
    18.00000   175.18401
    18.05000   175.30603
    18.10000   175.39542
    18.15000   175.44971
    18.20000   175.47331
    18.25000   175.47057
    18.30000   175.44040
    18.35000   175.37619
    18.40000   175.27023
    18.45000   175.11920
    18.50000   174.92642
    18.55000   174.69980
    18.60000   174.44691
    18.65000   174.17130
    18.70000   173.87242
    18.75000   173.54919
    18.80000   173.20416
    18.85000   172.84532
    18.90000   172.48421
    18.95000   172.13168
    19.00000   171.79443
    19.05000   171.47404
    19.10000   171.16862
    19.15000   170.87511
    19.20000   170.59135
    19.25000   170.31763
    19.30000   170.05782
    19.35000   169.81998
    19.40000   169.61501
    19.45000   169.45277
    19.50000   169.33754
    19.55000   169.26561
    19.60000   169.22691
    19.65000   169.20927
    19.70000   169.20262
    19.75000   169.20059
    19.80000   169.20010
    19.85000   169.20001
    19.90000   169.20000
    19.95000   169.20000
    20.00000   169.20000
    20.05000   169.20000
    20.10000   169.20000
    20.15000   169.19997
    20.20000   169.19978
    20.25000   169.19885
    20.30000   169.19550
    20.35000   169.18559
    20.40000   169.16196
    20.45000   169.11491
    20.50000   169.03613
    20.55000   168.92384
    20.60000   168.78668
    20.65000   168.64160
    20.70000   168.50587
    20.75000   168.38721
    20.80000   168.27904
    20.85000   168.16412
    20.90000   168.02443
    20.95000   167.85028
    21.00000   167.64439
    21.05000   167.41988
