#Name              :  NGC 6946 
#Alpha(1950 (H M S):  20 33 49 
#Delta(1950)(d ' "):  +59 58 49 
#Type              :  Sc  
#Activity          :          
#Interaction       :    
#Position angle (d):  64 
#Inclination (d)   :    30    
#Distance (Mpc)    :   5.5      
#Scale radius (kpc):          
#
#    R(kpc)    V(km/s)  
     0.00000   173.35001
     0.05000   212.18549
     0.10000   231.39204
     0.15000   236.13147
     0.20000   236.29514
     0.25000   234.58606
     0.30000   231.53018
     0.35000   227.46388
     0.40000   223.23378
     0.45000   219.15826
     0.50000   214.60033
     0.55000   209.28143
     0.60000   203.95216
     0.65000   199.47513
     0.70000   195.96899
     0.75000   193.19424
     0.80000   191.01662
     0.85000   189.20740
     0.90000   187.57913
     0.95000   186.14618
     1.00000   184.96173
     1.05000   184.03717
     1.10000   183.28725
     1.15000   182.71330
     1.20000   182.35028
     1.25000   182.05354
     1.30000   181.68050
     1.35000   181.22044
     1.40000   180.75153
     1.45000   180.44608
     1.50000   180.17075
     1.55000   179.95073
     1.60000   179.80286
     1.65000   179.73363
     1.70000   179.73853
     1.75000   179.80238
     1.80000   179.90207
     1.85000   180.01205
     1.90000   180.11131
     1.95000   180.18811
     2.00000   180.24062
     2.05000   180.27441
     2.10000   180.29961
     2.15000   180.32912
     2.20000   180.37709
     2.25000   180.45537
     2.30000   180.56813
     2.35000   180.70859
     2.40000   180.86188
     2.45000   181.01367
     2.50000   181.15871
     2.55000   181.30191
     2.60000   181.45168
     2.65000   181.61217
     2.70000   181.78191
     2.75000   181.95964
     2.80000   182.15147
     2.85000   182.37265
     2.90000   182.64285
     2.95000   182.97949
     3.00000   183.39349
     3.05000   183.88953
     3.10000   184.46968
     3.15000   185.13765
     3.20000   185.89980
     3.25000   186.76120
     3.30000   187.71832
     3.35000   188.75452
     3.40000   189.84364
     3.45000   190.96130
     3.50000   192.09563
     3.55000   193.25000
     3.60000   194.43620
     3.65000   195.66321
     3.70000   196.92822
     3.75000   198.21324
     3.80000   199.48756
     3.85000   200.71458
     3.90000   201.85986
     3.95000   202.89716
     4.00000   203.81030
     4.05000   204.59198
     4.10000   205.24123
     4.15000   205.76131
     4.20000   206.15837
     4.25000   206.44040
     4.30000   206.61633
     4.35000   206.69624
     4.40000   206.69304
     4.45000   206.62534
     4.50000   206.51863
     4.55000   206.40279
     4.60000   206.30585
     4.65000   206.24809
     4.70000   206.23952
     4.75000   206.28194
     4.80000   206.37273
     4.85000   206.50784
     4.90000   206.68295
     4.95000   206.89450
     5.00000   207.14168
     5.05000   207.42873
     5.10000   207.76523
     5.15000   208.16335
     5.20000   208.63261
     5.25000   209.17567
     5.30000   209.78682
     5.35000   210.45361
     5.40000   211.16103
     5.45000   211.89575
     5.50000   212.64922
     5.55000   213.41734
     5.60000   214.19810
     5.65000   214.99046
     5.70000   215.79678
     5.75000   216.62714
     5.80000   217.50018
     5.85000   218.43681
     5.90000   219.44963
     5.95000   220.53493
     6.00000   221.67290
     6.05000   222.83461
     6.10000   223.99135
     6.15000   225.12151
     6.20000   226.21298
     6.25000   227.26051
     6.30000   228.25951
     6.35000   229.20032
     6.40000   230.06715
     6.45000   230.84264
     6.50000   231.51469
     6.55000   232.08131
     6.60000   232.55080
     6.65000   232.93806
     6.70000   233.25923
     6.75000   233.52631
     6.80000   233.74396
     6.85000   233.90923
     6.90000   234.01433
     6.95000   234.05157
     7.00000   234.01878
     7.05000   233.92314
     7.10000   233.78061
     7.15000   233.61076
     7.20000   233.42923
     7.25000   233.24294
     7.30000   233.05048
     7.35000   232.84644
     7.40000   232.62633
     7.45000   232.38895
     7.50000   232.13655
     7.55000   231.87323
     7.60000   231.60294
     7.65000   231.32814
     7.70000   231.04948
     7.75000   230.76675
     7.80000   230.47997
     7.85000   230.19016
     7.90000   229.89944
     7.95000   229.61035
     8.00000   229.32523
     8.05000   229.04553
     8.10000   228.77168
     8.15000   228.50304
     8.20000   228.23811
     8.25000   227.97452
     8.30000   227.70885
     8.35000   227.43680
     8.40000   227.15433
     8.45000   226.85893
     8.50000   226.55014
     8.55000   226.22745
     8.60000   225.88728
     8.65000   225.52158
     8.70000   225.12061
     8.75000   224.67955
     8.80000   224.20374
     8.85000   223.70920
     8.90000   223.21738
     8.95000   222.74727
     9.00000   222.30870
     9.05000   221.89900
     9.10000   221.50511
     9.15000   221.11008
     9.20000   220.70038
     9.25000   220.26891
     9.30000   219.81229
     9.35000   219.32681
     9.40000   218.81009
     9.45000   218.26894
     9.50000   217.72670
     9.55000   217.21970
     9.60000   216.78162
     9.65000   216.42703
     9.70000   216.14703
     9.75000   215.92026
     9.80000   215.72878
     9.85000   215.56635
     9.90000   215.43530
     9.95000   215.33855
    10.00000   215.27426
    10.05000   215.23601
    10.10000   215.21553
    10.15000   215.20517
    10.20000   215.19838
    10.25000   215.18861
    10.30000   215.16797
    10.35000   215.12735
    10.40000   215.05920
    10.45000   214.96220
    10.50000   214.84444
    10.55000   214.72173
    10.60000   214.61121
    10.65000   214.52394
    10.70000   214.46104
    10.75000   214.41444
    10.80000   214.36996
    10.85000   214.31042
    10.90000   214.21809
    10.95000   214.07860
    11.00000   213.88660
    11.05000   213.65063
    11.10000   213.39223
    11.15000   213.13695
    11.20000   212.90216
    11.25000   212.68982
    11.30000   212.48920
    11.35000   212.28615
    11.40000   212.07159
    11.45000   211.84435
    11.50000   211.60915
    11.55000   211.37340
    11.60000   211.14455
    11.65000   210.92850
    11.70000   210.72812
    11.75000   210.54204
    11.80000   210.36496
    11.85000   210.19051
    11.90000   210.01514
    11.95000   209.84027
    12.00000   209.67023
    12.05000   209.50760
    12.10000   209.35104
    12.15000   209.19826
    12.20000   209.05226
    12.25000   208.92540
    12.30000   208.83742
    12.35000   208.80876
    12.40000   208.85329
    12.45000   208.97346
    12.50000   209.16016
    12.55000   209.39656
    12.60000   209.66489
    12.65000   209.95259
    12.70000   210.25546
    12.75000   210.57651
    12.80000   210.92223
    12.85000   211.29836
    12.90000   211.70642
    12.95000   212.14255
    13.00000   212.59840
    13.05000   213.06348
    13.10000   213.52715
    13.15000   213.97943
    13.20000   214.41109
    13.25000   214.81384
    13.30000   215.18164
    13.35000   215.51160
    13.40000   215.80347
    13.45000   216.05682
    13.50000   216.26727
    13.55000   216.42426
    13.60000   216.51167
    13.65000   216.51199
    13.70000   216.41267
    13.75000   216.21268
    13.80000   215.92561
    13.85000   215.57713
    13.90000   215.19675
    13.95000   214.80798
    14.00000   214.42139
    14.05000   214.03296
    14.10000   213.62802
    14.15000   213.18950
    14.20000   212.70647
    14.25000   212.17838
    14.30000   211.61278
    14.35000   211.01900
    14.40000   210.40305
    14.45000   209.76729
    14.50000   209.11320
    14.55000   208.44473
    14.60000   207.76923
    14.65000   207.09627
    14.70000   206.43517
    14.75000   205.79236
    14.80000   205.17020
    14.85000   204.56741
    14.90000   203.98128
    14.95000   203.41071
    15.00000   202.85878
    15.05000   202.33427
    15.10000   201.85098
    15.15000   201.42496
    15.20000   201.07076
    15.25000   200.79865
    15.30000   200.61351
    15.35000   200.51495
    15.40000   200.49745
    15.45000   200.55003
    15.50000   200.65677
    15.55000   200.79909
    15.60000   200.96008
    15.65000   201.12894
    15.70000   201.30272
    15.75000   201.48495
    15.80000   201.68217
    15.85000   201.90051
    15.90000   202.14317
    15.95000   202.40947
    16.00000   202.69484
    16.05000   202.99179
    16.10000   203.29195
    16.15000   203.58876
    16.20000   203.87981
    16.25000   204.16713
    16.30000   204.45490
    16.35000   204.74577
    16.40000   205.03882
    16.45000   205.32957
    16.50000   205.61235
    16.55000   205.88197
    16.60000   206.13461
    16.65000   206.36781
    16.70000   206.58142
    16.75000   206.77863
    16.80000   206.96632
    16.85000   207.15331
    16.90000   207.34677
    16.95000   207.54927
    17.00000   207.75806
